Potential applied (V);Time (s);WE(1).Current (A);WE(1).Potential (V);Index;WE(2).Current (A);Current range
0.5975341796875;143.669841637269;0.000360015869140625;0.597747802734375;1;0.000344390869140625;1 mA
0.5950927734375;143.79191163696;0.0003753662109375;0.59527587890625;2;0.000300537109375;1 mA
0.5926513671875;143.913981636652;0.0003623046875;0.5927734375;3;0.000303009033203125;1 mA
0.5902099609375;144.036051636344;0.000354583740234375;0.59033203125;4;0.000293914794921875;1 mA
0.5877685546875;144.158121636036;0.0003511962890625;0.58782958984375;5;0.000289764404296875;1 mA
0.5853271484375;144.280191635728;0.000350921630859375;0.58544921875;6;0.0002803955078125;1 mA
0.5828857421875;144.402261635419;0.0003475341796875;0.583038330078125;7;0.000276702880859375;1 mA
0.5804443359375;144.524331635111;0.000353057861328125;0.58056640625;8;0.00040435791015625;1 mA
0.5780029296875;144.646401634803;0.00035418701171875;0.57843017578125;9;0.0006048583984375;1 mA
0.5755615234375;144.768471634495;0.0003502197265625;0.575653076171875;10;0.0003055419921875;1 mA
0.5731201171875;144.890541634187;0.000345306396484375;0.57330322265625;11;0.000288909912109375;1 mA
0.5706787109375;145.012611633878;0.00034033203125;0.570770263671875;12;0.000290618896484375;1 mA
0.5682373046875;145.13468163357;0.000379241943359375;0.568450927734375;13;0.00040753173828125;1 mA
0.5657958984375;145.256751633262;0.000380035400390625;0.56597900390625;14;0.00050506591796875;1 mA
0.5633544921875;145.378821632954;0.000382904052734375;0.56341552734375;15;0.000291473388671875;1 mA
0.5609130859375;145.500891632646;0.000373138427734375;0.561065673828125;16;0.000395782470703125;1 mA
0.5584716796875;145.622961632337;0.000347412109375;0.55859375;17;0.00038238525390625;1 mA
0.5560302734375;145.745031632029;0.000376617431640625;0.55615234375;18;0.000516357421875;1 mA
0.5535888671875;145.867101631721;0.000360626220703125;0.553619384765625;19;0.000317474365234375;1 mA
0.5511474609375;145.989171631413;0.000367706298828125;0.55126953125;20;0.00039154052734375;1 mA
0.5487060546875;146.111241631105;0.000344879150390625;0.54888916015625;21;0.00040496826171875;1 mA
0.5462646484375;146.233311630796;0.000364013671875;0.546356201171875;22;0.000363861083984375;1 mA
0.5438232421875;146.355381630488;0.000362518310546875;0.543914794921875;23;0.00036517333984375;1 mA
0.5413818359375;146.47745163018;0.000378021240234375;0.541412353515625;24;0.00034515380859375;1 mA
0.5389404296875;146.599521629872;0.000371337890625;0.538909912109375;25;0.00049835205078125;1 mA
0.5364990234375;146.721591629564;0.000348419189453125;0.536651611328125;26;0.00037689208984375;1 mA
0.5340576171875;146.843661629255;0.00036279296875;0.534149169921875;27;0.000315155029296875;1 mA
0.5316162109375;146.965731628947;0.000359710693359375;0.531646728515625;28;0.00040625;1 mA
0.5291748046875;147.087801628639;0.0003406982421875;0.5291748046875;29;0.00043212890625;1 mA
0.5267333984375;147.209871628331;0.00032958984375;0.526885986328125;30;0.000341644287109375;1 mA
0.5242919921875;147.331941628023;0.00035491943359375;0.524383544921875;31;0.00035125732421875;1 mA
0.5218505859375;147.454011627714;0.00035888671875;0.521820068359375;32;0.00033428955078125;1 mA
0.5194091796875;147.576081627406;0.000347076416015625;0.51947021484375;33;0.00049285888671875;1 mA
0.5169677734375;147.698151627098;0.00032769775390625;0.51715087890625;34;0.00045135498046875;1 mA
0.5145263671875;147.82022162679;0.00033343505859375;0.514617919921875;35;0.0003680419921875;1 mA
0.5120849609375;147.942291626482;0.00034405517578125;0.512115478515625;36;0.000422027587890625;1 mA
0.5096435546875;148.064361626173;0.000323394775390625;0.509796142578125;37;0.000341033935546875;1 mA
0.5072021484375;148.186431625865;0.00036761474609375;0.507293701171875;38;0.0007147216796875;1 mA
0.5047607421875;148.308501625557;0.000327606201171875;0.5048828125;39;0.0003514404296875;1 mA
0.5023193359375;148.430571625249;0.0003173828125;0.50244140625;40;0.00032635498046875;1 mA
0.4998779296875;148.552641624941;0.000309539794921875;0.499969482421875;41;0.000340576171875;1 mA
0.4974365234375;148.674711624632;0.000324371337890625;0.497894287109375;42;0.0006103515625;1 mA
0.4949951171875;148.796781624324;0.000323211669921875;0.4951171875;43;0.000343414306640625;1 mA
0.4925537109375;148.918851624016;0.000350067138671875;0.49267578125;44;0.00038116455078125;1 mA
0.4901123046875;149.040921623708;0.000309051513671875;0.49017333984375;45;0.000347625732421875;1 mA
0.4876708984375;149.1629916234;0.000314361572265625;0.487762451171875;46;0.00054046630859375;1 mA
0.4852294921875;149.285061623091;0.000317718505859375;0.485260009765625;47;0.0003360595703125;1 mA
0.4827880859375;149.407131622783;0.00029901123046875;0.482879638671875;48;0.000327667236328125;1 mA
0.4803466796875;149.529201622475;0.00030413818359375;0.480499267578125;49;0.00036468505859375;1 mA
0.4779052734375;149.651271622167;0.0003017578125;0.47772216796875;50;0.000402313232421875;1 mA
0.4754638671875;149.773341621859;0.000321929931640625;0.475494384765625;51;0.00044671630859375;1 mA
0.4730224609375;149.89541162155;0.000338836669921875;0.473052978515625;52;0.000334869384765625;1 mA
0.4705810546875;150.017481621242;0.000301422119140625;0.470672607421875;53;0.0003450927734375;1 mA
0.4681396484375;150.139551620934;0.00029083251953125;0.468231201171875;54;0.000349212646484375;1 mA
0.4656982421875;150.261621620626;0.00029962158203125;0.465728759765625;55;0.000343963623046875;1 mA
0.4632568359375;150.383691620318;0.000293426513671875;0.463348388671875;56;0.000371673583984375;1 mA
0.4608154296875;150.505761620009;0.000291900634765625;0.46087646484375;57;0.00036016845703125;1 mA
0.4583740234375;150.627831619701;0.000287506103515625;0.458465576171875;58;0.000343902587890625;1 mA
0.4559326171875;150.749901619393;0.000308013916015625;0.45611572265625;59;0.00054046630859375;1 mA
0.4534912109375;150.871971619085;0.000328369140625;0.453582763671875;60;0.000337982177734375;1 mA
0.4510498046875;150.994041618777;0.00027569580078125;0.4510498046875;61;0.000334991455078125;1 mA
0.4486083984375;151.116111618468;0.000271392822265625;0.44866943359375;62;0.000330535888671875;1 mA
0.4461669921875;151.23818161816;0.0002723388671875;0.4462890625;63;0.000324981689453125;1 mA
0.4437255859375;151.360251617852;0.0002615966796875;0.443817138671875;64;0.000318817138671875;1 mA
0.4412841796875;151.482321617544;0.000287841796875;0.441314697265625;65;0.00045135498046875;1 mA
0.4388427734375;151.604391617236;0.000277374267578125;0.43896484375;66;0.0003924560546875;1 mA
0.4364013671875;151.726461616928;0.00026019287109375;0.436492919921875;67;0.0003250732421875;1 mA
0.4339599609375;151.848531616619;0.0002642822265625;0.43408203125;68;0.00034222412109375;1 mA
0.4315185546875;151.970601616311;0.0002911376953125;0.431671142578125;69;0.000324249267578125;1 mA
0.4290771484375;152.092671616003;0.000266265869140625;0.42913818359375;70;0.00051300048828125;1 mA
0.4266357421875;152.214741615695;0.000248321533203125;0.426788330078125;71;0.000322784423828125;1 mA
0.4241943359375;152.336811615387;0.00024151611328125;0.42431640625;72;0.00031756591796875;1 mA
0.4217529296875;152.458881615078;0.0002384033203125;0.42181396484375;73;0.0003175048828125;1 mA
0.4193115234375;152.58095161477;0.000264404296875;0.41949462890625;74;0.00049468994140625;1 mA
0.4168701171875;152.703021614462;0.00024835205078125;0.416961669921875;75;0.000339141845703125;1 mA
0.4144287109375;152.825091614154;0.000262725830078125;0.414520263671875;76;0.00033416748046875;1 mA
0.4119873046875;152.947161613846;0.000333038330078125;0.412139892578125;77;0.000362091064453125;1 mA
0.4095458984375;153.069231613537;0.000262664794921875;0.40966796875;78;0.000380859375;1 mA
0.4071044921875;153.191301613229;0.000248687744140625;0.407196044921875;79;0.000346710205078125;1 mA
0.4046630859375;153.313371612921;0.000260467529296875;0.40478515625;80;0.0003475341796875;1 mA
0.4022216796875;153.435441612613;0.000310577392578125;0.402313232421875;81;0.000357757568359375;1 mA
0.3997802734375;153.557511612305;0.00027593994140625;0.399749755859375;82;0.00042962646484375;1 mA
0.3973388671875;153.679581611996;0.0002669677734375;0.39739990234375;83;0.00053253173828125;1 mA
0.3948974609375;153.801651611688;0.000238311767578125;0.394989013671875;84;0.00035223388671875;1 mA
0.3924560546875;153.92372161138;0.000267822265625;0.392608642578125;85;0.00044189453125;1 mA
0.3900146484375;154.045791611072;0.000249786376953125;0.390045166015625;86;0.000374603271484375;1 mA
0.3875732421875;154.167861610764;0.000303619384765625;0.387664794921875;87;0.00065185546875;1 mA
0.3851318359375;154.289931610455;0.00028265380859375;0.38519287109375;88;0.0004901123046875;1 mA
0.3826904296875;154.412001610147;0.00031793212890625;0.382781982421875;89;0.00042724609375;1 mA
0.3802490234375;154.534071609839;0.00027398681640625;0.38037109375;90;0.00051483154296875;1 mA
0.3778076171875;154.656141609531;0.00029144287109375;0.377838134765625;91;0.0006427001953125;1 mA
0.3753662109375;154.778211609223;0.000270111083984375;0.375457763671875;92;0.00036590576171875;1 mA
0.3729248046875;154.900281608914;0.00026165771484375;0.37298583984375;93;0.000367919921875;1 mA
0.3704833984375;155.022351608606;0.00025836181640625;0.370513916015625;94;0.00043975830078125;1 mA
0.3680419921875;155.144421608298;0.000234405517578125;0.3680419921875;95;0.00038507080078125;1 mA
0.3656005859375;155.26649160799;0.0002384033203125;0.365631103515625;96;0.000376953125;1 mA
0.3631591796875;155.388561607682;0.0002210693359375;0.36322021484375;97;0.000371124267578125;1 mA
0.3607177734375;155.510631607373;0.000207244873046875;0.3609619140625;98;0.000365386962890625;1 mA
0.3582763671875;155.632701607065;0.00022918701171875;0.358306884765625;99;0.00059326171875;1 mA
0.3558349609375;155.754771606757;0.000198516845703125;0.35595703125;100;0.0003634033203125;1 mA
0.3533935546875;155.876841606449;0.000189971923828125;0.35345458984375;101;0.00035430908203125;1 mA
0.3509521484375;155.998911606141;0.00018756103515625;0.35113525390625;102;0.000362548828125;1 mA
0.3485107421875;156.120981605832;0.00027093505859375;0.3485107421875;103;0.00051971435546875;1 mA
0.3460693359375;156.243051605524;0.00022808837890625;0.346160888671875;104;0.000411773681640625;1 mA
0.3436279296875;156.365121605216;0.00019219970703125;0.34375;105;0.000369873046875;1 mA
0.3411865234375;156.487191604908;0.00018157958984375;0.34124755859375;106;0.00036309814453125;1 mA
0.3387451171875;156.6092616046;0.00017352294921875;0.338836669921875;107;0.00035797119140625;1 mA
0.3363037109375;156.731331604291;0.00016650390625;0.33636474609375;108;0.00035247802734375;1 mA
0.3338623046875;156.853401603983;0.000160797119140625;0.333892822265625;109;0.000351959228515625;1 mA
0.3314208984375;156.975471603675;0.000155731201171875;0.33148193359375;110;0.0003525390625;1 mA
0.3289794921875;157.097541603367;0.000149749755859375;0.32904052734375;111;0.000349945068359375;1 mA
0.3265380859375;157.219611603059;0.000144500732421875;0.326568603515625;112;0.00034783935546875;1 mA
0.3240966796875;157.34168160275;0.000139617919921875;0.32415771484375;113;0.0003477783203125;1 mA
0.3216552734375;157.463751602442;0.000135406494140625;0.32171630859375;114;0.000347869873046875;1 mA
0.3192138671875;157.585821602134;0.000130950927734375;0.3193359375;115;0.00034649658203125;1 mA
0.3167724609375;157.707891601826;0.000126312255859375;0.316864013671875;116;0.000346954345703125;1 mA
0.3143310546875;157.829961601518;0.000122467041015625;0.314361572265625;117;0.000346893310546875;1 mA
0.3118896484375;157.952031601209;0.000118804931640625;0.31195068359375;118;0.00034906005859375;1 mA
0.3094482421875;158.074101600901;0.000114654541015625;0.30950927734375;119;0.00034796142578125;1 mA
0.3070068359375;158.196171600593;0.00011041259765625;0.3070068359375;120;0.000348663330078125;1 mA
0.3045654296875;158.318241600285;0.000106536865234375;0.304595947265625;121;0.000349365234375;1 mA
0.3021240234375;158.440311599977;0.000103485107421875;0.30218505859375;122;0.000350341796875;1 mA
0.2996826171875;158.562381599668;9.9578857421875E-05;0.29974365234375;123;0.000350311279296875;1 mA
0.2972412109375;158.68445159936;9.5367431640625E-05;0.29730224609375;124;0.00035015869140625;1 mA
0.2947998046875;158.806521599052;9.1583251953125E-05;0.294830322265625;125;0.000349822998046875;1 mA
0.2923583984375;158.928591598744;8.807373046875E-05;0.29241943359375;126;0.000352081298828125;1 mA
0.2899169921875;159.050661598436;8.428955078125E-05;0.289947509765625;127;0.0003516845703125;1 mA
0.2874755859375;159.172731598127;8.0322265625E-05;0.287445068359375;128;0.000352142333984375;100 µA
0.2850341796875;159.294801597819;7.666015625E-05;0.285003662109375;129;0.00035272216796875;100 µA
0.2825927734375;159.416871597511;7.3089599609375E-05;0.28253173828125;130;0.000355865478515625;100 µA
0.2801513671875;159.538941597203;6.951904296875E-05;0.280059814453125;131;0.00035418701171875;100 µA
0.2777099609375;159.661011596895;6.5643310546875E-05;0.277679443359375;132;0.00035546875;100 µA
0.2752685546875;159.783081596586;6.2103271484375E-05;0.275238037109375;133;0.0003560791015625;100 µA
0.2728271484375;159.905151596278;5.8563232421875E-05;0.2728271484375;134;0.000357757568359375;100 µA
0.2703857421875;160.02722159597;5.487060546875E-05;0.270355224609375;135;0.000358001708984375;100 µA
0.2679443359375;160.149291595662;5.0994873046875E-05;0.267913818359375;136;0.000358551025390625;100 µA
0.2655029296875;160.271361595354;4.7149658203125E-05;0.26544189453125;137;0.000359344482421875;100 µA
0.2630615234375;160.393431595046;4.327392578125E-05;0.263092041015625;138;0.0003623046875;100 µA
0.2606201171875;160.515501594737;3.96270751953125E-05;0.260589599609375;139;0.000362274169921875;100 µA
0.2581787109375;160.637571594429;3.582763671875E-05;0.258148193359375;140;0.00036279296875;100 µA
0.2557373046875;160.759641594121;3.15155029296875E-05;0.2557373046875;141;0.000363800048828125;100 µA
0.2532958984375;160.881711593813;2.75848388671875E-05;0.2532958984375;142;0.000365936279296875;100 µA
0.2508544921875;161.003781593505;2.3748779296875E-05;0.2508544921875;143;0.00036627197265625;100 µA
0.2484130859375;161.125851593196;1.95343017578125E-05;0.24847412109375;144;0.000367462158203125;100 µA
0.2459716796875;161.247921592888;1.48406982421875E-05;0.2459716796875;145;0.000367431640625;100 µA
0.2435302734375;161.36999159258;1.058349609375E-05;0.243560791015625;146;0.000369537353515625;100 µA
0.2410888671875;161.492061592272;6.3812255859375E-06;0.241180419921875;147;0.0003712158203125;100 µA
0.2386474609375;161.614131591964;1.9927978515625E-06;0.23870849609375;148;0.000372894287109375;100 µA
0.2362060546875;161.736201591655;-3.240966796875E-06;0.236297607421875;149;0.0003726806640625;100 µA
0.2337646484375;161.858271591347;-7.696533203125E-06;0.23382568359375;150;0.00037506103515625;100 µA
0.2313232421875;161.980341591039;-1.18865966796875E-05;0.23138427734375;151;0.0003773193359375;100 µA
0.2288818359375;162.102411590731;-1.6888427734375E-05;0.228973388671875;152;0.000377838134765625;100 µA
0.2264404296875;162.224481590423;-2.2369384765625E-05;0.226470947265625;153;0.000378082275390625;100 µA
0.2239990234375;162.346551590114;-2.7459716796875E-05;0.22412109375;154;0.000380462646484375;100 µA
0.2215576171875;162.468621589806;-3.072509765625E-05;0.22161865234375;155;0.000382232666015625;100 µA
0.2191162109375;162.590691589498;-3.6334228515625E-05;0.21923828125;156;0.000382476806640625;100 µA
0.2166748046875;162.71276158919;-4.23919677734375E-05;0.216705322265625;157;0.00038330078125;100 µA
0.2142333984375;162.834831588882;-4.78515625E-05;0.21435546875;158;0.00038555908203125;100 µA
0.2117919921875;162.956901588573;-5.2947998046875E-05;0.21185302734375;159;0.000388824462890625;100 µA
0.2093505859375;163.078971588265;-5.865478515625E-05;0.209442138671875;160;0.000389617919921875;100 µA
0.2069091796875;163.201041587957;-6.475830078125E-05;0.20697021484375;161;0.00038970947265625;100 µA
0.2044677734375;163.323111587649;-7.06787109375E-05;0.204559326171875;162;0.000392303466796875;100 µA
0.2020263671875;163.445181587341;-7.6202392578125E-05;0.202178955078125;163;0.000394256591796875;100 µA
0.1995849609375;163.567251587032;-8.233642578125E-05;0.199737548828125;164;0.000397430419921875;100 µA
0.1971435546875;163.689321586724;-8.82568359375E-05;0.197235107421875;165;0.000396728515625;100 µA
0.1947021484375;163.811391586416;-9.442138671875E-05;0.194793701171875;166;0.00039837646484375;100 µA
0.1922607421875;163.933461586108;-0.000100799560546875;0.192352294921875;167;0.00040252685546875;100 µA
0.1898193359375;164.0555315858;-0.00010675048828125;0.18994140625;168;0.000403076171875;100 µA
0.1873779296875;164.177601585491;-0.00011328125;0.1875;169;0.000403533935546875;100 µA
0.1849365234375;164.299671585183;-0.00011962890625;0.185089111328125;170;0.000405914306640625;100 µA
0.1824951171875;164.421741584875;-0.0001263427734375;0.182647705078125;171;0.0004100341796875;100 µA
0.1800537109375;164.543811584567;-0.00013226318359375;0.18017578125;172;0.000410491943359375;100 µA
0.1776123046875;164.665881584259;-0.000139007568359375;0.177764892578125;173;0.000411163330078125;100 µA
0.1751708984375;164.78795158395;-9.9609375E-05;0.17529296875;174;0.000415069580078125;100 µA
0.1727294921875;164.910021583642;-0.000148468017578125;0.1728515625;175;0.00041796875;100 µA
0.1702880859375;165.032091583334;-0.0001552734375;0.170440673828125;176;0.000418243408203125;100 µA
0.1678466796875;165.154161583026;-0.0001622314453125;0.16802978515625;177;0.00041790771484375;100 µA
0.1654052734375;165.276231582718;-0.000169342041015625;0.1656494140625;178;0.000421234130859375;100 µA
0.1629638671875;165.398301582409;-0.000176483154296875;0.16314697265625;179;0.000424713134765625;100 µA
0.1605224609375;165.520371582101;-0.000182403564453125;0.1607666015625;180;0.00042706298828125;100 µA
0.1580810546875;165.642441581793;-0.0001890869140625;0.15826416015625;181;0.000427154541015625;100 µA
0.1556396484375;165.764511581485;-0.000196319580078125;0.1558837890625;182;0.0004298095703125;100 µA
0.1531982421875;165.886581581177;-0.000203765869140625;0.1534423828125;183;0.000432708740234375;100 µA
0.1507568359375;166.008651580868;-0.00020977783203125;0.15093994140625;184;0.000435302734375;100 µA
0.1483154296875;166.13072158056;-0.000216400146484375;0.148529052734375;185;0.000434814453125;100 µA
0.1458740234375;166.252791580252;-0.00022265625;0.1461181640625;186;0.0004361572265625;100 µA
0.1434326171875;166.374861579944;-0.000229644775390625;0.143646240234375;187;0.000440185546875;100 µA
0.1409912109375;166.496931579636;-0.000235931396484375;0.141204833984375;188;0.00044232177734375;100 µA
0.1385498046875;166.619001579327;-0.000242218017578125;0.1387939453125;189;0.00044293212890625;100 µA
0.1361083984375;166.741071579019;-0.000248565673828125;0.1363525390625;190;0.000444671630859375;100 µA
0.1336669921875;166.863141578711;-0.00025537109375;0.1339111328125;191;0.00044830322265625;100 µA
0.1312255859375;166.985211578403;-0.000261260986328125;0.13153076171875;192;0.000450042724609375;100 µA
0.1287841796875;167.107281578095;-0.000266693115234375;0.129058837890625;193;0.00045098876953125;100 µA
0.1263427734375;167.229351577786;-0.00027276611328125;0.12664794921875;194;0.000451873779296875;100 µA
0.1239013671875;167.351421577478;-0.00027911376953125;0.124237060546875;195;0.00045465087890625;100 µA
0.1214599609375;167.47349157717;-0.00028515625;0.121795654296875;196;0.000457122802734375;100 µA
0.1190185546875;167.595561576862;-0.000290435791015625;0.119354248046875;197;0.000459075927734375;100 µA
0.1165771484375;167.717631576554;-0.000296478271484375;0.116912841796875;198;0.000460052490234375;100 µA
0.1141357421875;167.839701576245;-0.000303314208984375;0.114471435546875;199;0.0004632568359375;100 µA
0.1116943359375;167.961771575937;-0.000308807373046875;0.111663818359375;200;0.00046453857421875;1 mA
0.1092529296875;168.083841575629;-0.00031390380859375;0.109344482421875;201;0.0004664306640625;1 mA
0.1068115234375;168.205911575321;-0.000319732666015625;0.106842041015625;202;0.0004664306640625;1 mA
0.1043701171875;168.327981575013;-0.00032586669921875;0.1043701171875;203;0.000469879150390625;1 mA
0.1019287109375;168.450051574705;-0.000331146240234375;0.10205078125;204;0.000471527099609375;1 mA
0.0994873046875;168.572121574396;-0.000335906982421875;0.09954833984375;205;0.000473419189453125;1 mA
0.0970458984375;168.694191574088;-0.0003411865234375;0.09710693359375;206;0.00047308349609375;1 mA
0.0946044921875;168.81626157378;-0.0003477783203125;0.09466552734375;207;0.00047760009765625;1 mA
0.0921630859375;168.938331573472;-0.00035284423828125;0.092193603515625;208;0.00047869873046875;1 mA
0.0897216796875;169.060401573164;-0.0003572998046875;0.089691162109375;209;0.0004796142578125;1 mA
0.0872802734375;169.182471572855;-0.000362091064453125;0.087371826171875;210;0.000479522705078125;1 mA
0.0848388671875;169.304541572547;-0.00036846923828125;0.0848388671875;211;0.00048333740234375;1 mA
0.0823974609375;169.426611572239;-0.00037353515625;0.082489013671875;212;0.000485504150390625;1 mA
0.0799560546875;169.548681571931;-0.000376861572265625;0.08001708984375;213;0.000486236572265625;1 mA
0.0775146484375;169.670751571623;-0.0003819580078125;0.077606201171875;214;0.000485626220703125;1 mA
0.0750732421875;169.792821571314;-0.000389007568359375;0.07513427734375;215;0.0004901123046875;1 mA
0.0726318359375;169.914891571006;-0.000393341064453125;0.07269287109375;216;0.0004931640625;1 mA
0.0701904296875;170.036961570698;-0.000397674560546875;0.070159912109375;217;0.00049224853515625;1 mA
0.0677490234375;170.15903157039;-0.000402740478515625;0.0677490234375;218;0.00049346923828125;1 mA
0.0653076171875;170.281101570082;-0.000408355712890625;0.065338134765625;219;0.00049468994140625;1 mA
0.0628662109375;170.403171569773;-0.0004122314453125;0.0628662109375;220;0.0004974365234375;1 mA
0.0604248046875;170.525241569465;-0.000416351318359375;0.060516357421875;221;0.000498046875;1 mA
0.0579833984375;170.647311569157;-0.00042108154296875;0.058013916015625;222;0.0004986572265625;1 mA
0.0555419921875;170.769381568849;-0.000427093505859375;0.0555419921875;223;0.0005010986328125;1 mA
0.0531005859375;170.891451568541;-0.000430999755859375;0.05322265625;224;0.0005047607421875;1 mA
0.0506591796875;171.013521568232;-0.000435760498046875;0.05084228515625;225;0.00050537109375;1 mA
0.0482177734375;171.135591567924;-0.00044000244140625;0.048309326171875;226;0.00050506591796875;1 mA
0.0457763671875;171.257661567616;-0.00044464111328125;0.0458221435546875;227;0.000506591796875;1 mA
0.0433349609375;171.379731567308;-0.000448883056640625;0.043414306640625;228;0.00050933837890625;1 mA
0.0408935546875;171.501801567;-0.00045367431640625;0.040972900390625;229;0.0005120849609375;1 mA
0.0384521484375;171.623871566691;-0.000457855224609375;0.038446044921875;230;0.00050994873046875;1 mA
0.0360107421875;171.745941566383;-0.000462554931640625;0.036065673828125;231;0.00051361083984375;1 mA
0.0335693359375;171.868011566075;-0.000467529296875;0.033636474609375;232;0.0005169677734375;1 mA
0.0311279296875;171.990081565767;-0.000470550537109375;0.0309478759765625;233;0.000516357421875;1 mA
0.0286865234375;172.112151565459;-0.00047576904296875;0.0287139892578125;234;0.000516357421875;1 mA
0.0262451171875;172.23422156515;-0.000479461669921875;0.0262847900390625;235;0.000518798828125;1 mA
0.0238037109375;172.356291564842;-0.000483978271484375;0.023822021484375;236;0.000523681640625;1 mA
0.0213623046875;172.478361564534;-0.000486846923828125;0.0213470458984375;237;0.00052215576171875;1 mA
0.0189208984375;172.600431564226;-0.00048919677734375;0.0189849853515625;238;0.00052093505859375;1 mA
0.0164794921875;172.722501563918;-0.00049346923828125;0.0165191650390625;239;0.0005255126953125;1 mA
0.0140380859375;172.844571563609;-0.0004986572265625;0.0139801025390625;240;0.00052764892578125;1 mA
0.0115966796875;172.966641563301;-0.000496826171875;0.01180419921875;241;0.00048370361328125;1 mA
0.0091552734375;173.088711562993;-0.000482513427734375;0.00905456542968749;242;0.00050537109375;1 mA
0.0067138671875;173.210781562685;-0.00048431396484375;0.00678405761718751;243;0.00052337646484375;1 mA
0.0042724609375;173.332851562377;-0.000487762451171875;0.00429382324218749;244;0.00053314208984375;1 mA
0.0018310546875;173.454921562068;-0.00048651123046875;0.002337646484375;245;0.0005230712890625;1 mA
-0.0006103515625;173.57699156176;-0.000429718017578125;-0.000579833984375;246;0.00073699951171875;1 mA
-0.0030517578125;173.699061561452;-0.000247406005859375;-0.00275268554687499;247;0.00079986572265625;1 mA
-0.0054931640625;173.821131561144;-0.00035211181640625;-0.0054473876953125;248;0.00060760498046875;1 mA
-0.0079345703125;173.943201560836;-0.0003143310546875;-0.0077362060546875;249;0.0005780029296875;1 mA
-0.0103759765625;174.065271560527;-0.000347076416015625;-0.0102294921875;250;0.0005682373046875;1 mA
-0.0128173828125;174.187341560219;-0.000421630859375;-0.0127899169921875;251;0.00056793212890625;1 mA
-0.0152587890625;174.309411559911;-0.000341461181640625;-0.015228271484375;252;0.00084991455078125;1 mA
-0.0177001953125;174.431481559603;-0.000271453857421875;-0.0173553466796875;253;0.0006561279296875;1 mA
-0.0201416015625;174.553551559295;-0.0003582763671875;-0.020068359375;254;0.00057464599609375;1 mA
-0.0225830078125;174.675621558986;-0.00027227783203125;-0.0225494384765625;255;0.00086151123046875;1 mA
-0.0250244140625;174.797691558678;-0.000392791748046875;-0.0249053955078125;256;0.00070281982421875;1 mA
-0.0274658203125;174.91976155837;-0.000386932373046875;-0.02728271484375;257;0.00062103271484375;1 mA
-0.0299072265625;175.041831558062;-0.000456756591796875;-0.0298370361328125;258;0.0005938720703125;1 mA
-0.0323486328125;175.163901557754;-0.00032763671875;-0.0323486328125;259;0.0006280517578125;1 mA
-0.0347900390625;175.285971557445;-0.00037939453125;-0.03472900390625;260;0.00061248779296875;1 mA
-0.0372314453125;175.408041557137;-0.000400604248046875;-0.03704833984375;261;0.00076080322265625;1 mA
-0.0396728515625;175.530111556829;-0.000435516357421875;-0.039654541015625;262;0.0006524658203125;1 mA
-0.0421142578125;175.652181556521;-0.000350341796875;-0.0420928955078125;263;0.0005889892578125;1 mA
-0.0445556640625;175.774251556213;-0.00037890625;-0.0443756103515625;264;0.00082244873046875;1 mA
-0.0469970703125;175.896321555904;-0.000324798583984375;-0.046746826171875;265;0.00083831787109375;1 mA
-0.0494384765625;176.018391555596;-0.00042315673828125;-0.0493865966796875;266;0.00064208984375;1 mA
-0.0518798828125;176.140461555288;-0.00036328125;-0.0517578125;267;0.00063690185546875;1 mA
-0.0543212890625;176.26253155498;-0.0004293212890625;-0.0543212890625;268;0.00064208984375;1 mA
-0.0567626953125;176.384601554672;-0.0004185791015625;-0.056793212890625;269;0.00095184326171875;1 mA
-0.0592041015625;176.506671554363;-0.00045172119140625;-0.05914306640625;270;0.0006549072265625;1 mA
-0.0616455078125;176.628741554055;-0.0004144287109375;-0.061492919921875;271;0.0006207275390625;1 mA
-0.0640869140625;176.750811553747;-0.00039056396484375;-0.0640869140625;272;0.0007757568359375;1 mA
-0.0665283203125;176.872881553439;-0.000408721923828125;-0.06640625;273;0.00091064453125;1 mA
-0.0689697265625;176.994951553131;-0.000324676513671875;-0.06884765625;274;0.0008172607421875;1 mA
-0.0714111328125;177.117021552823;-0.00033795166015625;-0.0712890625;275;0.00078094482421875;1 mA
-0.0738525390625;177.239091552514;-0.00037249755859375;-0.073760986328125;276;0.0007373046875;1 mA
-0.0762939453125;177.361161552206;-0.00044207763671875;-0.07623291015625;277;0.0007757568359375;1 mA
-0.0787353515625;177.483231551898;-0.000421417236328125;-0.07861328125;278;0.000701904296875;1 mA
-0.0811767578125;177.60530155159;-0.00038275146484375;-0.0810546875;279;0.0006658935546875;1 mA
-0.0836181640625;177.727371551282;-0.000405426025390625;-0.08349609375;280;0.00074310302734375;1 mA
-0.0860595703125;177.849441550973;-0.000394378662109375;-0.0859375;281;0.00084503173828125;1 mA
-0.0885009765625;177.971511550665;-0.000438751220703125;-0.08837890625;282;0.000712890625;1 mA
-0.0909423828125;178.093581550357;-0.00039910888671875;-0.09088134765625;283;0.00082672119140625;1 mA
-0.0933837890625;178.215651550049;-0.000407806396484375;-0.093353271484375;284;0.0007666015625;1 mA
-0.0958251953125;178.337721549741;-0.000418121337890625;-0.095703125;285;0.000767822265625;1 mA
-0.0982666015625;178.459791549432;-0.0004744873046875;-0.09808349609375;286;0.00070709228515625;1 mA
-0.1007080078125;178.581861549124;-0.00040826416015625;-0.100616455078125;287;0.00078277587890625;1 mA
-0.1031494140625;178.703931548816;-0.00042138671875;-0.102996826171875;288;0.00069244384765625;1 mA
-0.1055908203125;178.826001548508;-0.000457122802734375;-0.105499267578125;289;0.00079742431640625;1 mA
-0.1080322265625;178.9480715482;-0.0004189453125;-0.108062744140625;290;0.00074676513671875;1 mA
-0.1104736328125;179.070141547891;-0.00050537109375;-0.110382080078125;291;0.0006756591796875;1 mA
-0.1129150390625;179.192211547583;-0.000443084716796875;-0.112823486328125;292;0.00083099365234375;1 mA
-0.1153564453125;179.314281547275;-0.00045452880859375;-0.115203857421875;293;0.00085052490234375;1 mA
-0.1177978515625;179.436351546967;-0.00050079345703125;-0.11749267578125;294;0.00085357666015625;1 mA
-0.1202392578125;179.558421546659;-0.00046417236328125;-0.120208740234375;295;0.00080322265625;1 mA
-0.1226806640625;179.68049154635;-0.00046270751953125;-0.122528076171875;296;0.00080657958984375;1 mA
-0.1251220703125;179.802561546042;-0.00048797607421875;-0.124969482421875;297;0.0007830810546875;1 mA
-0.1275634765625;179.924631545734;-0.00045166015625;-0.12744140625;298;0.00069915771484375;1 mA
-0.1300048828125;180.046701545426;-0.0004779052734375;-0.1298828125;299;0.0007647705078125;1 mA
-0.1324462890625;180.168771545118;-0.000487060546875;-0.1324462890625;300;0.0008203125;1 mA
-0.1348876953125;180.290841544809;-0.0004949951171875;-0.134735107421875;301;0.0008050537109375;1 mA
-0.1373291015625;180.412911544501;-0.00049102783203125;-0.137481689453125;302;0.00071502685546875;1 mA
-0.1397705078125;180.534981544193;-0.000496826171875;-0.1396484375;303;0.0008331298828125;1 mA
-0.1422119140625;180.657051543885;-0.00051666259765625;-0.142120361328125;304;0.00080291748046875;1 mA
-0.1446533203125;180.779121543577;-0.00050628662109375;-0.14459228515625;305;0.00079986572265625;1 mA
-0.1470947265625;180.901191543268;-0.000491943359375;-0.146636962890625;306;0.00075225830078125;1 mA
-0.1495361328125;181.02326154296;-0.0005364990234375;-0.149444580078125;307;0.00076171875;1 mA
-0.1519775390625;181.145331542652;-0.00058349609375;-0.151824951171875;308;0.00072509765625;1 mA
-0.1544189453125;181.267401542344;-0.00064208984375;-0.15423583984375;309;0.00071319580078125;1 mA
-0.1568603515625;181.389471542036;-0.0006317138671875;-0.156707763671875;310;0.00072967529296875;1 mA
-0.1593017578125;181.511541541727;-0.000592041015625;-0.159149169921875;311;0.00078948974609375;1 mA
-0.1617431640625;181.633611541419;-0.00057159423828125;-0.1614990234375;312;0.00074676513671875;1 mA
-0.1641845703125;181.755681541111;-0.0005511474609375;-0.1640625;313;0.000894775390625;1 mA
-0.1666259765625;181.877751540803;-0.0006219482421875;-0.16650390625;314;0.00073822021484375;1 mA
-0.1690673828125;181.999821540495;-0.00065155029296875;-0.16888427734375;315;0.000755615234375;1 mA
-0.1715087890625;182.121891540186;-0.000574951171875;-0.171356201171875;316;0.0007720947265625;1 mA
-0.1739501953125;182.243961539878;-0.00063751220703125;-0.173736572265625;317;0.00074462890625;1 mA
-0.1763916015625;182.36603153957;-0.0006036376953125;-0.1761474609375;318;0.00095733642578125;1 mA
-0.1788330078125;182.488101539262;-0.00062408447265625;-0.178680419921875;319;0.00076751708984375;1 mA
-0.1812744140625;182.610171538954;-0.000550537109375;-0.1810302734375;320;0.0007208251953125;1 mA
-0.1837158203125;182.732241538645;-0.00056488037109375;-0.183624267578125;321;0.0009283447265625;1 mA
-0.1861572265625;182.854311538337;-0.00066436767578125;-0.185882568359375;322;0.00074981689453125;1 mA
-0.1885986328125;182.976381538029;-0.00054656982421875;-0.188446044921875;323;0.00088897705078125;1 mA
-0.1910400390625;183.098451537721;-0.00063232421875;-0.190765380859375;324;0.00075836181640625;1 mA
-0.1934814453125;183.220521537413;-0.0006024169921875;-0.193389892578125;325;0.0008544921875;1 mA
-0.1959228515625;183.342591537104;-0.0005841064453125;-0.195587158203125;326;0.00083709716796875;1 mA
-0.1983642578125;183.464661536796;-0.00058929443359375;-0.19805908203125;327;0.00084014892578125;1 mA
-0.2008056640625;183.586731536488;-0.00059051513671875;-0.201171875;328;0.0008697509765625;1 mA
