Potential applied (V);Time (s);WE(1).Current (A);WE(1).Potential (V);Index;WE(2).Current (A);Current range
0.5975341796875;10.8391709726337;7.958984375E-05;0.59759521484375;1;5.4412841796875E-05;100 µA
0.5950927734375;10.9612409723255;7.965087890625E-05;0.595184326171875;2;5.8319091796875E-05;100 µA
0.5926513671875;11.0833109720173;7.94677734375E-05;0.592681884765625;3;6.109619140625E-05;100 µA
0.5902099609375;11.2053809717091;7.9803466796875E-05;0.590301513671875;4;6.2225341796875E-05;100 µA
0.5877685546875;11.3274509714009;8.050537109375E-05;0.587860107421875;5;6.231689453125E-05;100 µA
0.5853271484375;11.4495209710927;8.111572265625E-05;0.585357666015625;6;6.378173828125E-05;100 µA
0.5828857421875;11.5715909707845;8.203125E-05;0.582916259765625;7;6.640625E-05;100 µA
0.5804443359375;11.6936609704763;8.245849609375E-05;0.580535888671875;8;6.878662109375E-05;100 µA
0.5780029296875;11.8157309701681;8.209228515625E-05;0.57806396484375;9;7.0709228515625E-05;100 µA
0.5755615234375;11.9378009698599;8.1329345703125E-05;0.575653076171875;10;7.0068359375E-05;100 µA
0.5731201171875;12.0598709695518;8.0902099609375E-05;0.5731201171875;11;6.8878173828125E-05;100 µA
0.5706787109375;12.1819409692436;8.0780029296875E-05;0.570709228515625;12;6.8206787109375E-05;100 µA
0.5682373046875;12.3040109689354;8.0108642578125E-05;0.56829833984375;13;6.817626953125E-05;100 µA
0.5657958984375;12.4260809686272;7.9833984375E-05;0.565887451171875;14;6.8450927734375E-05;100 µA
0.5633544921875;12.548150968319;7.9559326171875E-05;0.563385009765625;15;6.7901611328125E-05;100 µA
0.5609130859375;12.6702209680108;7.9345703125E-05;0.56097412109375;16;6.744384765625E-05;100 µA
0.5584716796875;12.7922909677026;7.940673828125E-05;0.55859375;17;6.6986083984375E-05;100 µA
0.5560302734375;12.9143609673944;7.9132080078125E-05;0.55609130859375;18;6.719970703125E-05;100 µA
0.5535888671875;13.0364309670862;7.9071044921875E-05;0.55364990234375;19;6.7626953125E-05;100 µA
0.5511474609375;13.158500966778;7.879638671875E-05;0.55120849609375;20;6.8572998046875E-05;100 µA
0.5487060546875;13.2805709664698;7.9071044921875E-05;0.548828125;21;6.951904296875E-05;100 µA
0.5462646484375;13.4026409661616;7.952880859375E-05;0.54632568359375;22;7.0343017578125E-05;100 µA
0.5438232421875;13.5247109658534;7.9925537109375E-05;0.54388427734375;23;7.122802734375E-05;100 µA
0.5413818359375;13.6467809655452;7.9925537109375E-05;0.54144287109375;24;7.196044921875E-05;100 µA
0.5389404296875;13.768850965237;7.977294921875E-05;0.53900146484375;25;7.2357177734375E-05;100 µA
0.5364990234375;13.8909209649288;7.965087890625E-05;0.53656005859375;26;7.2723388671875E-05;100 µA
0.5340576171875;14.0129909646206;7.9620361328125E-05;0.53411865234375;27;7.330322265625E-05;100 µA
0.5316162109375;14.1350609643124;7.9742431640625E-05;0.53167724609375;28;7.38525390625E-05;100 µA
0.5291748046875;14.2571309640042;7.940673828125E-05;0.529266357421875;29;7.4554443359375E-05;100 µA
0.5267333984375;14.379200963696;7.89794921875E-05;0.526824951171875;30;7.50732421875E-05;100 µA
0.5242919921875;14.5012709633878;7.855224609375E-05;0.52435302734375;31;7.5775146484375E-05;100 µA
0.5218505859375;14.6233409630796;7.8369140625E-05;0.521881103515625;32;7.5714111328125E-05;100 µA
0.5194091796875;14.7454109627714;7.8094482421875E-05;0.519439697265625;33;7.6507568359375E-05;100 µA
0.5169677734375;14.8674809624632;7.7545166015625E-05;0.51702880859375;34;7.684326171875E-05;100 µA
0.5145263671875;14.989550962155;7.7362060546875E-05;0.51458740234375;35;7.7423095703125E-05;100 µA
0.5120849609375;15.1116209618468;7.6812744140625E-05;0.512115478515625;36;7.806396484375E-05;100 µA
0.5096435546875;15.2336909615386;7.6416015625E-05;0.509674072265625;37;7.867431640625E-05;100 µA
0.5072021484375;15.3557609612304;7.598876953125E-05;0.507232666015625;38;7.958984375E-05;100 µA
0.5047607421875;15.4778309609222;7.55615234375E-05;0.504852294921875;39;8.038330078125E-05;100 µA
0.5023193359375;15.599900960614;7.5469970703125E-05;0.50238037109375;40;8.1390380859375E-05;100 µA
0.4998779296875;15.7219709603058;7.5225830078125E-05;0.499908447265625;41;8.203125E-05;100 µA
0.4974365234375;15.8440409599976;7.464599609375E-05;0.49749755859375;42;8.251953125E-05;100 µA
0.4949951171875;15.9661109596894;7.415771484375E-05;0.4949951171875;43;8.2550048828125E-05;100 µA
0.4925537109375;16.0881809593812;7.3638916015625E-05;0.492584228515625;44;8.306884765625E-05;100 µA
0.4901123046875;16.2102509590731;7.2845458984375E-05;0.49017333984375;45;8.3709716796875E-05;100 µA
0.4876708984375;16.3323209587649;7.2174072265625E-05;0.487701416015625;46;8.43505859375E-05;100 µA
0.4852294921875;16.4543909584567;7.1502685546875E-05;0.4852294921875;47;8.5052490234375E-05;100 µA
0.4827880859375;16.5764609581485;7.0709228515625E-05;0.482818603515625;48;8.6181640625E-05;100 µA
0.4803466796875;16.6985309578403;7.012939453125E-05;0.480377197265625;49;8.7677001953125E-05;100 µA
0.4779052734375;16.8206009575321;6.9793701171875E-05;0.47796630859375;50;8.9080810546875E-05;100 µA
0.4754638671875;16.9426709572239;6.9183349609375E-05;0.475494384765625;51;9.033203125E-05;100 µA
0.4730224609375;17.0647409569157;6.884765625E-05;0.47308349609375;52;9.1156005859375E-05;100 µA
0.4705810546875;17.1868109566075;6.842041015625E-05;0.47064208984375;53;9.1522216796875E-05;100 µA
0.4681396484375;17.3088809562993;6.7657470703125E-05;0.468170166015625;54;9.1949462890625E-05;100 µA
0.4656982421875;17.4309509559911;6.6986083984375E-05;0.465728759765625;55;9.1644287109375E-05;100 µA
0.4632568359375;17.5530209556829;6.6131591796875E-05;0.46331787109375;56;9.173583984375E-05;100 µA
0.4608154296875;17.6750909553747;6.5582275390625E-05;0.46087646484375;57;9.173583984375E-05;100 µA
0.4583740234375;17.7971609550665;6.4849853515625E-05;0.458404541015625;58;9.24072265625E-05;100 µA
0.4559326171875;17.9192309547583;6.43310546875E-05;0.4559326171875;59;9.3170166015625E-05;100 µA
0.4534912109375;18.0413009544501;6.3873291015625E-05;0.45355224609375;60;9.3902587890625E-05;100 µA
0.4510498046875;18.1633709541419;6.3323974609375E-05;0.451080322265625;61;9.46044921875E-05;100 µA
0.4486083984375;18.2854409538337;6.2744140625E-05;0.44866943359375;62;9.5367431640625E-05;100 µA
0.4461669921875;18.4075109535255;6.256103515625E-05;0.446197509765625;63;9.564208984375E-05;100 µA
0.4437255859375;18.5295809532173;6.1920166015625E-05;0.4437255859375;64;9.5855712890625E-05;100 µA
0.4412841796875;18.6516509529091;6.15234375E-05;0.44134521484375;65;9.6466064453125E-05;100 µA
0.4388427734375;18.7737209526009;6.109619140625E-05;0.4388427734375;66;9.68017578125E-05;100 µA
0.4364013671875;18.8957909522927;6.06689453125E-05;0.43646240234375;67;9.7137451171875E-05;100 µA
0.4339599609375;19.0178609519845;6.0333251953125E-05;0.4339599609375;68;9.735107421875E-05;100 µA
0.4315185546875;19.1399309516763;5.975341796875E-05;0.431549072265625;69;9.7930908203125E-05;100 µA
0.4290771484375;19.2620009513681;5.914306640625E-05;0.4290771484375;70;9.820556640625E-05;100 µA
0.4266357421875;19.3840709510599;5.84716796875E-05;0.426727294921875;71;9.9578857421875E-05;100 µA
0.4241943359375;19.5061409507517;5.7861328125E-05;0.424224853515625;72;0.00010015869140625;100 µA
0.4217529296875;19.6282109504435;5.76171875E-05;0.421783447265625;73;0.00010076904296875;100 µA
0.4193115234375;19.7502809501353;5.70068359375E-05;0.4193115234375;74;0.000101226806640625;100 µA
0.4168701171875;19.8723509498271;5.6365966796875E-05;0.41693115234375;75;0.0001016845703125;100 µA
0.4144287109375;19.9944209495189;5.56640625E-05;0.414520263671875;76;0.000102386474609375;100 µA
0.4119873046875;20.1164909492107;5.48095703125E-05;0.412017822265625;77;0.00010302734375;100 µA
0.4095458984375;20.2385609489025;5.4443359375E-05;0.4095458984375;78;0.000103515625;100 µA
0.4071044921875;20.3606309485943;5.401611328125E-05;0.4071044921875;79;0.000103729248046875;100 µA
0.4046630859375;20.4827009482862;5.3131103515625E-05;0.404693603515625;80;0.000104095458984375;100 µA
0.4022216796875;20.604770947978;5.2276611328125E-05;0.402252197265625;81;0.000104278564453125;100 µA
0.3997802734375;20.7268409476698;5.1422119140625E-05;0.39984130859375;82;0.000105255126953125;100 µA
0.3973388671875;20.8489109473616;5.0567626953125E-05;0.39739990234375;83;0.000105804443359375;100 µA
0.3948974609375;20.9709809470534;4.998779296875E-05;0.3948974609375;84;0.000105743408203125;100 µA
0.3924560546875;21.0930509467452;4.925537109375E-05;0.392486572265625;85;0.000105743408203125;100 µA
0.3900146484375;21.215120946437;4.8260498046875E-05;0.390106201171875;86;0.000106292724609375;100 µA
0.3875732421875;21.3371909461288;4.72900390625E-05;0.387603759765625;87;0.000107177734375;100 µA
0.3851318359375;21.4592609458206;4.6405029296875E-05;0.385162353515625;88;0.000107818603515625;100 µA
0.3826904296875;21.5813309455124;4.5587158203125E-05;0.382720947265625;89;0.000108154296875;100 µA
0.3802490234375;21.7034009452042;4.49249267578125E-05;0.38031005859375;90;0.0001085205078125;100 µA
0.3778076171875;21.825470944896;4.40460205078125E-05;0.377838134765625;91;0.000108917236328125;100 µA
0.3753662109375;21.9475409445878;4.2938232421875E-05;0.37542724609375;92;0.00011004638671875;100 µA
0.3729248046875;22.0696109442796;4.1839599609375E-05;0.37298583984375;93;0.0001107177734375;100 µA
0.3704833984375;22.1916809439714;4.11346435546875E-05;0.37054443359375;94;0.00011126708984375;100 µA
0.3680419921875;22.3137509436632;4.056396484375E-05;0.368072509765625;95;0.00011126708984375;100 µA
0.3656005859375;22.435820943355;3.9666748046875E-05;0.365631103515625;96;0.00011175537109375;100 µA
0.3631591796875;22.5578909430468;3.861083984375E-05;0.363189697265625;97;0.0001126708984375;100 µA
0.3607177734375;22.6799609427386;3.76251220703125E-05;0.3607177734375;98;0.00011346435546875;100 µA
0.3582763671875;22.8020309424304;3.66424560546875E-05;0.358367919921875;99;0.000114166259765625;100 µA
0.3558349609375;22.9241009421222;3.58184814453125E-05;0.355926513671875;100;0.0001148681640625;100 µA
0.3533935546875;23.046170941814;3.52874755859375E-05;0.35345458984375;101;0.000114898681640625;100 µA
0.3509521484375;23.1682409415058;3.4124755859375E-05;0.351043701171875;102;0.000115509033203125;100 µA
0.3485107421875;23.2903109411976;3.31512451171875E-05;0.34857177734375;103;0.00011669921875;100 µA
0.3460693359375;23.4123809408894;3.206787109375E-05;0.346099853515625;104;0.00011761474609375;100 µA
0.3436279296875;23.5344509405812;3.12835693359375E-05;0.34368896484375;105;0.0001181640625;100 µA
0.3411865234375;23.656520940273;3.07525634765625E-05;0.341217041015625;106;0.000118316650390625;100 µA
0.3387451171875;23.7785909399648;2.979736328125E-05;0.338775634765625;107;0.000118927001953125;100 µA
0.3363037109375;23.9006609396566;2.86529541015625E-05;0.336334228515625;108;0.0001192626953125;100 µA
0.3338623046875;24.0227309393484;2.7435302734375E-05;0.33392333984375;109;0.000120758056640625;100 µA
0.3314208984375;24.1448009390402;2.63885498046875E-05;0.33148193359375;110;0.00012139892578125;100 µA
0.3289794921875;24.266870938732;2.5830078125E-05;0.329010009765625;111;0.000121734619140625;100 µA
0.3265380859375;24.3889409384238;2.4981689453125E-05;0.32659912109375;112;0.0001221923828125;100 µA
0.3240966796875;24.5110109381156;2.3834228515625E-05;0.324188232421875;113;0.000122650146484375;100 µA
0.3216552734375;24.6330809378074;2.2601318359375E-05;0.32171630859375;114;0.000123626708984375;100 µA
0.3192138671875;24.7551509374993;2.12890625E-05;0.31927490234375;115;0.00012445068359375;100 µA
0.3167724609375;24.8772209371911;2.06146240234375E-05;0.316864013671875;116;0.00012493896484375;100 µA
0.3143310546875;24.9992909368829;1.99005126953125E-05;0.3143310546875;117;0.000125152587890625;100 µA
0.3118896484375;25.1213609365747;1.868896484375E-05;0.311981201171875;118;0.00012567138671875;100 µA
0.3094482421875;25.2434309362665;1.72332763671875E-05;0.30950927734375;119;0.00012628173828125;100 µA
0.3070068359375;25.3655009359583;1.578369140625E-05;0.30706787109375;120;0.000127471923828125;100 µA
0.3045654296875;25.4875709356501;1.4630126953125E-05;0.304595947265625;121;0.000128265380859375;100 µA
0.3021240234375;25.6096409353419;1.380615234375E-05;0.302215576171875;122;0.00012847900390625;100 µA
0.2996826171875;25.7317109350337;1.26953125E-05;0.299774169921875;123;0.00012860107421875;100 µA
0.2972412109375;25.8537809347255;1.1083984375E-05;0.297271728515625;124;0.000129486083984375;100 µA
0.2947998046875;25.9758509344173;9.527587890625E-06;0.29486083984375;125;0.00013067626953125;100 µA
0.2923583984375;26.0979209341091;8.0413818359375E-06;0.292388916015625;126;0.00013128662109375;100 µA
0.2899169921875;26.2199909338009;6.927490234375E-06;0.289947509765625;127;0.000131561279296875;100 µA
0.2874755859375;26.3420609334927;5.96923828125E-06;0.287567138671875;128;0.00013177490234375;100 µA
0.2850341796875;26.4641309331845;4.28741455078125E-06;0.285064697265625;129;0.000132293701171875;100 µA
0.2825927734375;26.5862009328763;2.43743896484375E-06;0.282440185546875;130;0.00013372802734375;10 µA
0.2801513671875;26.7082709325681;6.2255859375E-07;0.280181884765625;131;0.00013433837890625;10 µA
0.2777099609375;26.8303409322599;-7.6507568359375E-07;0.27777099609375;132;0.0001348876953125;10 µA
0.2752685546875;26.9524109319517;-1.9525146484375E-06;0.275390625;133;0.000134765625;10 µA
0.2728271484375;27.0744809316435;-3.5528564453125E-06;0.272979736328125;134;0.000135528564453125;10 µA
0.2703857421875;27.1965509313353;-5.4779052734375E-06;0.270538330078125;135;0.00013665771484375;10 µA
0.2679443359375;27.3186209310271;-7.806396484375E-06;0.268035888671875;136;0.000137359619140625;10 µA
0.2655029296875;27.4406909307189;-1.00433349609375E-05;0.265655517578125;137;0.000138671875;10 µA
0.2630615234375;27.5627609304107;-1.1505126953125E-05;0.263214111328125;138;0.000138885498046875;10 µA
0.2606201171875;27.6848309301025;-1.29119873046875E-05;0.2607421875;139;0.000139007568359375;10 µA
0.2581787109375;27.8069009297943;-1.49566650390625E-05;0.258392333984375;140;0.000139556884765625;10 µA
0.2557373046875;27.9289709294861;-1.75689697265625E-05;0.255950927734375;141;0.000141143798828125;10 µA
0.2532958984375;28.0510409291779;-2.02484130859375E-05;0.2535400390625;142;0.0001422119140625;10 µA
0.2508544921875;28.1731109288697;-2.1966552734375E-05;0.2510986328125;143;0.000142730712890625;10 µA
0.2484130859375;28.2951809285615;-2.36328125E-05;0.248687744140625;144;0.00014251708984375;10 µA
0.2459716796875;28.4172509282533;-2.5799560546875E-05;0.2462158203125;145;0.00014300537109375;10 µA
0.2435302734375;28.5393209279451;-2.86712646484375E-05;0.243896484375;146;0.00014361572265625;10 µA
0.2410888671875;28.6613909276369;-3.1915283203125E-05;0.241485595703125;147;0.000145751953125;10 µA
0.2386474609375;28.7834609273287;-3.4271240234375E-05;0.23870849609375;148;0.0001466064453125;100 µA
0.2362060546875;28.9055309270205;-3.6602783203125E-05;0.236328125;149;0.000146636962890625;100 µA
0.2337646484375;29.0276009267124;-3.80828857421875E-05;0.23388671875;150;0.000146636962890625;100 µA
0.2313232421875;29.1496709264042;-4.17022705078125E-05;0.231414794921875;151;0.000147918701171875;100 µA
0.2288818359375;29.271740926096;-4.46563720703125E-05;0.228973388671875;152;0.000149078369140625;100 µA
0.2264404296875;29.3938109257878;-4.81658935546875E-05;0.226593017578125;153;0.000150726318359375;100 µA
0.2239990234375;29.5158809254796;-5.0537109375E-05;0.224090576171875;154;0.00015087890625;100 µA
0.2215576171875;29.6379509251714;-5.322265625E-05;0.22161865234375;155;0.000151031494140625;100 µA
0.2191162109375;29.7600209248632;-5.6396484375E-05;0.21917724609375;156;0.000151611328125;100 µA
0.2166748046875;29.882090924555;-5.999755859375E-05;0.21673583984375;157;0.000153106689453125;100 µA
0.2142333984375;30.0041609242468;-6.402587890625E-05;0.21429443359375;158;0.000154937744140625;100 µA
0.2117919921875;30.1262309239386;-6.7169189453125E-05;0.211883544921875;159;0.000156341552734375;100 µA
0.2093505859375;30.2483009236304;-6.982421875E-05;0.20941162109375;160;0.000156219482421875;100 µA
0.2069091796875;30.3703709233222;-7.305908203125E-05;0.20703125;161;0.00015631103515625;100 µA
0.2044677734375;30.492440923014;-7.67822265625E-05;0.20458984375;162;0.000157623291015625;100 µA
0.2020263671875;30.6145109227058;-8.0810546875E-05;0.202117919921875;163;0.000159698486328125;100 µA
0.1995849609375;30.7365809223976;-8.5052490234375E-05;0.199737548828125;164;0.000161224365234375;100 µA
0.1971435546875;30.8586509220894;-8.75244140625E-05;0.197235107421875;165;0.000161376953125;100 µA
0.1947021484375;30.9807209217812;-9.112548828125E-05;0.19482421875;166;0.000161712646484375;100 µA
0.1922607421875;31.102790921473;-9.5062255859375E-05;0.192352294921875;167;0.000162506103515625;100 µA
0.1898193359375;31.2248609211648;-9.8876953125E-05;0.189910888671875;168;0.000165069580078125;100 µA
0.1873779296875;31.3469309208566;-0.00010333251953125;0.1875;169;0.00016632080078125;100 µA
0.1849365234375;31.4690009205484;-0.000106597900390625;0.185089111328125;170;0.000167633056640625;100 µA
0.1824951171875;31.5910709202402;-0.0001104736328125;0.182647705078125;171;0.0001673583984375;100 µA
0.1800537109375;31.713140919932;-0.000113525390625;0.180206298828125;172;0.00016827392578125;100 µA
0.1776123046875;31.8352109196238;-0.00011773681640625;0.177734375;173;0.00016961669921875;100 µA
0.1751708984375;31.9572809193156;-0.0001221923828125;0.17535400390625;174;0.0001712646484375;100 µA
0.1727294921875;32.0793509190074;-0.000126129150390625;0.17291259765625;175;0.0001729736328125;100 µA
0.1702880859375;32.2014209186992;-0.00012896728515625;0.17041015625;176;0.00017352294921875;100 µA
0.1678466796875;32.323490918391;-0.000131927490234375;0.167999267578125;177;0.000173614501953125;100 µA
0.1654052734375;32.4455609180828;-0.00013531494140625;0.165557861328125;178;0.000174896240234375;100 µA
0.1629638671875;32.5676309177746;-0.0001397705078125;0.163116455078125;179;0.00017706298828125;100 µA
0.1605224609375;32.6897009174664;-0.0001446533203125;0.16070556640625;180;0.000179412841796875;100 µA
0.1580810546875;32.8117709171582;-0.0001468505859375;0.158233642578125;181;0.000180419921875;100 µA
0.1556396484375;32.93384091685;-0.000150482177734375;0.155792236328125;182;0.0001805419921875;100 µA
0.1531982421875;33.0559109165418;-0.000153594970703125;0.15338134765625;183;0.000181671142578125;100 µA
0.1507568359375;33.1779809162337;-0.00015716552734375;0.150909423828125;184;0.0001820068359375;100 µA
0.1483154296875;33.3000509159255;-0.000161041259765625;0.148529052734375;185;0.000185821533203125;100 µA
0.1458740234375;33.4221209156173;-0.000163421630859375;0.14605712890625;186;0.000187652587890625;100 µA
0.1434326171875;33.5441909153091;-0.00016693115234375;0.143585205078125;187;0.000188323974609375;100 µA
0.1409912109375;33.6662609150009;-0.000168182373046875;0.141143798828125;188;0.000188507080078125;100 µA
0.1385498046875;33.7883309146927;-0.000171722412109375;0.138671875;189;0.00019000244140625;100 µA
0.1361083984375;33.9104009143845;-0.000174346923828125;0.13629150390625;190;0.000192413330078125;100 µA
0.1336669921875;34.0324709140763;-0.00017779541015625;0.13385009765625;191;0.00019500732421875;100 µA
0.1312255859375;34.1545409137681;-0.000179901123046875;0.131439208984375;192;0.000195892333984375;100 µA
0.1287841796875;34.2766109134599;-0.0001822509765625;0.12890625;193;0.00019598388671875;100 µA
0.1263427734375;34.3986809131517;-0.000184417724609375;0.126556396484375;194;0.0001971435546875;100 µA
0.1239013671875;34.5207509128435;-0.0001871337890625;0.12408447265625;195;0.000199462890625;100 µA
0.1214599609375;34.6428209125353;-0.000189422607421875;0.12164306640625;196;0.00020208740234375;100 µA
0.1190185546875;34.7648909122271;-0.000191436767578125;0.119232177734375;197;0.000203826904296875;100 µA
0.1165771484375;34.8869609119189;-0.0001932373046875;0.11676025390625;198;0.000203826904296875;100 µA
0.1141357421875;35.0090309116107;-0.000195281982421875;0.114349365234375;199;0.00020465087890625;100 µA
0.1116943359375;35.1311009113025;-0.000196533203125;0.11187744140625;200;0.00020635986328125;100 µA
0.1092529296875;35.2531709109943;-0.0001993408203125;0.109466552734375;201;0.000208892822265625;100 µA
0.1068115234375;35.3752409106861;-0.000201873779296875;0.106964111328125;202;0.00021112060546875;100 µA
0.1043701171875;35.4973109103779;-0.00020172119140625;0.10455322265625;203;0.00021124267578125;100 µA
0.1019287109375;35.6193809100697;-0.000203704833984375;0.102142333984375;204;0.000211761474609375;100 µA
0.0994873046875;35.7414509097615;-0.000205810546875;0.099639892578125;205;0.00021295166015625;100 µA
0.0970458984375;35.8635209094533;-0.000207183837890625;0.097198486328125;206;0.000215789794921875;100 µA
0.0946044921875;35.9855909091451;-0.00021063232421875;0.094818115234375;207;0.000218231201171875;100 µA
0.0921630859375;36.1076609088369;-0.0002108154296875;0.092376708984375;208;0.000219512939453125;100 µA
0.0897216796875;36.2297309085287;-0.000212677001953125;0.08990478515625;209;0.00021893310546875;100 µA
0.0872802734375;36.3518009082205;-0.000213226318359375;0.08746337890625;210;0.000220001220703125;100 µA
0.0848388671875;36.4738709079123;-0.000214752197265625;0.084991455078125;211;0.00022198486328125;100 µA
0.0823974609375;36.5959409076041;-0.00021795654296875;0.0826416015625;212;0.00022430419921875;100 µA
0.0799560546875;36.7180109072959;-0.00021917724609375;0.0802001953125;213;0.00022613525390625;100 µA
0.0775146484375;36.8400809069877;-0.00022015380859375;0.077728271484375;214;0.000226806640625;100 µA
0.0750732421875;36.9621509066795;-0.000220062255859375;0.075286865234375;215;0.000226409912109375;100 µA
0.0726318359375;37.0842209063713;-0.00022125244140625;0.072845458984375;216;0.000227874755859375;100 µA
0.0701904296875;37.2062909060631;-0.0002232666015625;0.070343017578125;217;0.000230377197265625;100 µA
0.0677490234375;37.3283609057549;-0.00022686767578125;0.0679931640625;218;0.00023260498046875;100 µA
0.0653076171875;37.4504309054468;-0.000226226806640625;0.065521240234375;219;0.00023333740234375;100 µA
0.0628662109375;37.5725009051386;-0.000227081298828125;0.06304931640625;220;0.00023297119140625;100 µA
0.0604248046875;37.6945709048304;-0.000228240966796875;0.06060791015625;221;0.0002340087890625;100 µA
0.0579833984375;37.8166409045222;-0.000229461669921875;0.05816650390625;222;0.0002337646484375;100 µA
0.0555419921875;37.938710904214;-0.000232452392578125;0.05572509765625;223;0.000237884521484375;100 µA
0.0531005859375;38.0607809039058;-0.000231658935546875;0.053314208984375;224;0.00023944091796875;100 µA
0.0506591796875;38.1828509035976;-0.000233001708984375;0.050872802734375;225;0.000239471435546875;100 µA
0.0482177734375;38.3049209032894;-0.000233245849609375;0.04830322265625;226;0.000239410400390625;100 µA
0.0457763671875;38.4269909029812;-0.000235260009765625;0.0458526611328125;227;0.0002406005859375;100 µA
0.0433349609375;38.549060902673;-0.000236480712890625;0.0434173583984375;228;0.000242828369140625;100 µA
0.0408935546875;38.6711309023648;-0.000238494873046875;0.04097900390625;229;0.000245208740234375;100 µA
0.0384521484375;38.7932009020566;-0.000238983154296875;0.0385284423828125;230;0.00024530029296875;100 µA
0.0360107421875;38.9152709017484;-0.00023956298828125;0.0360870361328125;231;0.00024468994140625;100 µA
0.0335693359375;39.0373409014402;-0.0002408447265625;0.0336456298828125;232;0.00024542236328125;100 µA
0.0311279296875;39.159410901132;-0.000242034912109375;0.0312042236328125;233;0.00024755859375;100 µA
0.0286865234375;39.2814809008238;-0.000243377685546875;0.028753662109375;234;0.000249603271484375;100 µA
0.0262451171875;39.4035509005156;-0.000244964599609375;0.026312255859375;235;0.000250457763671875;100 µA
0.0238037109375;39.5256209002074;-0.000244659423828125;0.0238739013671875;236;0.0002493896484375;100 µA
0.0213623046875;39.6476908998992;-0.00024609375;0.02142333984375;237;0.000250030517578125;100 µA
0.0189208984375;39.769760899591;-0.00024658203125;0.0189910888671875;238;0.000251617431640625;100 µA
0.0164794921875;39.8918308992828;-0.00024896240234375;0.01654052734375;239;0.00025311279296875;100 µA
0.0140380859375;40.0139008989746;-0.000250885009765625;0.014093017578125;240;0.000255157470703125;100 µA
0.0115966796875;40.1359708986664;-0.000249267578125;0.011651611328125;241;0.0002547607421875;100 µA
0.0091552734375;40.2580408983582;-0.0002503662109375;0.0092041015625;242;0.00025408935546875;100 µA
0.0067138671875;40.38011089805;-0.000251495361328125;0.00675354003906251;243;0.0002548828125;100 µA
0.0042724609375;40.5021808977418;-0.00025372314453125;0.00434265136718751;244;0.00025775146484375;100 µA
0.0018310546875;40.6242508974336;-0.000256195068359375;0.0018798828125;245;0.000259552001953125;100 µA
-0.0006103515625;40.7463208971254;-0.000255706787109375;-0.000585937499999994;246;0.000260101318359375;100 µA
-0.0030517578125;40.8683908968172;-0.0002568359375;-0.0030242919921875;247;0.0002586669921875;100 µA
-0.0054931640625;40.990460896509;-0.00025677490234375;-0.005450439453125;248;0.000259429931640625;100 µA
-0.0079345703125;41.1125308962008;-0.000258209228515625;-0.007891845703125;249;0.0002601318359375;100 µA
-0.0103759765625;41.2346008958926;-0.0002603759765625;-0.0103363037109375;250;0.000262939453125;100 µA
-0.0128173828125;41.3566708955844;-0.0002618408203125;-0.0127685546875;251;0.000264739990234375;100 µA
-0.0152587890625;41.4787408952762;-0.000262359619140625;-0.0152191162109375;252;0.000264129638671875;100 µA
-0.0177001953125;41.600810894968;-0.000261077880859375;-0.017657470703125;253;0.000263092041015625;100 µA
-0.0201416015625;41.7228808946599;-0.000262481689453125;-0.0201019287109375;254;0.00026422119140625;100 µA
-0.0225830078125;41.8449508943517;-0.00026385498046875;-0.02254638671875;255;0.000266021728515625;100 µA
-0.0250244140625;41.9670208940435;-0.000267730712890625;-0.0249725341796875;256;0.0002686767578125;100 µA
-0.0274658203125;42.0890908937353;-0.000266876220703125;-0.0274169921875;257;0.00026910400390625;100 µA
-0.0299072265625;42.2111608934271;-0.00026678466796875;-0.02984619140625;258;0.0002674560546875;100 µA
-0.0323486328125;42.3332308931189;-0.000267730712890625;-0.0323150634765625;259;0.00026849365234375;100 µA
-0.0347900390625;42.4553008928107;-0.000268951416015625;-0.03475341796875;260;0.00026849365234375;100 µA
-0.0372314453125;42.5773708925025;-0.00027227783203125;-0.0371917724609375;261;0.000272003173828125;100 µA
-0.0396728515625;42.6994408921943;-0.00027105712890625;-0.0396270751953125;262;0.0002735595703125;100 µA
-0.0421142578125;42.8215108918861;-0.0002716064453125;-0.04205322265625;263;0.00027276611328125;100 µA
-0.0445556640625;42.9435808915779;-0.00027142333984375;-0.0444976806640625;264;0.000271881103515625;100 µA
-0.0469970703125;43.0656508912697;-0.00027313232421875;-0.046929931640625;265;0.000273162841796875;100 µA
-0.0494384765625;43.1877208909615;-0.0002744140625;-0.049371337890625;266;0.000275665283203125;100 µA
-0.0518798828125;43.3097908906533;-0.000277130126953125;-0.0516357421875;267;0.0002777099609375;100 µA
-0.0543212890625;43.4318608903451;-0.000276641845703125;-0.05401611328125;268;0.000277313232421875;100 µA
-0.0567626953125;43.5539308900369;-0.0002760009765625;-0.05645751953125;269;0.000276153564453125;100 µA
-0.0592041015625;43.6760008897287;-0.000277557373046875;-0.05889892578125;270;0.0002762451171875;100 µA
-0.0616455078125;43.7980708894205;-0.000278594970703125;-0.061370849609375;271;0.00027911376953125;100 µA
-0.0640869140625;43.9201408891123;-0.0002803955078125;-0.06378173828125;272;0.000281097412109375;100 µA
-0.0665283203125;44.0422108888041;-0.00028216552734375;-0.066192626953125;273;0.0002818603515625;100 µA
-0.0689697265625;44.1642808884959;-0.00028143310546875;-0.068572998046875;274;0.000279632568359375;100 µA
-0.0714111328125;44.2863508881877;-0.000282073974609375;-0.071075439453125;275;0.000280731201171875;100 µA
-0.0738525390625;44.4084208878795;-0.000282958984375;-0.073516845703125;276;0.000282257080078125;100 µA
-0.0762939453125;44.5304908875713;-0.0002857666015625;-0.075958251953125;277;0.000284088134765625;100 µA
-0.0787353515625;44.6525608872631;-0.000287506103515625;-0.078399658203125;278;0.00028564453125;100 µA
-0.0811767578125;44.7746308869549;-0.00028546142578125;-0.080810546875;279;0.000284912109375;100 µA
-0.0836181640625;44.8967008866467;-0.00028582763671875;-0.083282470703125;280;0.000284149169921875;100 µA
-0.0860595703125;45.0187708863385;-0.000287261962890625;-0.085693359375;281;0.0002847900390625;100 µA
-0.0885009765625;45.1408408860303;-0.000289825439453125;-0.088134765625;282;0.000287017822265625;100 µA
-0.0909423828125;45.2629108857221;-0.000292388916015625;-0.090606689453125;283;0.000289642333984375;100 µA
-0.0933837890625;45.3849808854139;-0.000292694091796875;-0.093048095703125;284;0.000289337158203125;100 µA
-0.0958251953125;45.5070508851057;-0.000292083740234375;-0.095428466796875;285;0.000287994384765625;100 µA
-0.0982666015625;45.6291208847975;-0.0002926025390625;-0.097930908203125;286;0.000288604736328125;100 µA
-0.1007080078125;45.7511908844893;-0.00029388427734375;-0.100341796875;287;0.00028875732421875;100 µA
-0.1031494140625;45.8732608841811;-0.000295562744140625;-0.102783203125;288;0.00029205322265625;100 µA
-0.1055908203125;45.995330883873;-0.0002962646484375;-0.105224609375;289;0.0002935791015625;100 µA
-0.1080322265625;46.1174008835648;-0.00029730224609375;-0.107666015625;290;0.000292327880859375;100 µA
-0.1104736328125;46.2394708832566;-0.000295257568359375;-0.110137939453125;291;0.0002918701171875;100 µA
-0.1129150390625;46.3615408829484;-0.00029736328125;-0.112518310546875;292;0.000292449951171875;100 µA
-0.1153564453125;46.4836108826402;-0.00029864501953125;-0.11492919921875;293;0.000294281005859375;100 µA
-0.1177978515625;46.605680882332;-0.00030120849609375;-0.117401123046875;294;0.000297027587890625;100 µA
-0.1202392578125;46.7277508820238;-0.0003017578125;-0.12017822265625;295;0.000297119140625;1 mA
-0.1226806640625;46.8498208817156;-0.0003011474609375;-0.122589111328125;296;0.00029541015625;1 mA
-0.1251220703125;46.9718908814074;-0.000301727294921875;-0.125;297;0.0002957763671875;1 mA
-0.1275634765625;47.0939608810992;-0.000303375244140625;-0.12750244140625;298;0.000296478271484375;1 mA
-0.1300048828125;47.216030880791;-0.0003060302734375;-0.129852294921875;299;0.0002999267578125;1 mA
-0.1324462890625;47.3381008804828;-0.000305572509765625;-0.132354736328125;300;0.000301177978515625;1 mA
-0.1348876953125;47.4601708801746;-0.00030487060546875;-0.134765625;301;0.000299407958984375;1 mA
-0.1373291015625;47.5822408798664;-0.000305572509765625;-0.13720703125;302;0.000298126220703125;1 mA
-0.1397705078125;47.7043108795582;-0.000306365966796875;-0.139617919921875;303;0.00029974365234375;1 mA
-0.1422119140625;47.82638087925;-0.00030810546875;-0.142181396484375;304;0.00030218505859375;1 mA
-0.1446533203125;47.9484508789418;-0.00031085205078125;-0.144500732421875;305;0.00030438232421875;1 mA
-0.1470947265625;48.0705208786336;-0.000308746337890625;-0.14697265625;306;0.000302947998046875;1 mA
-0.1495361328125;48.1925908783254;-0.000308563232421875;-0.149444580078125;307;0.00030206298828125;1 mA
-0.1519775390625;48.3146608780172;-0.000310546875;-0.151885986328125;308;0.000302398681640625;1 mA
-0.1544189453125;48.436730877709;-0.000310791015625;-0.154266357421875;309;0.00030535888671875;1 mA
-0.1568603515625;48.5588008774008;-0.000314208984375;-0.15667724609375;310;0.000307220458984375;1 mA
-0.1593017578125;48.6808708770926;-0.00031451416015625;-0.1591796875;311;0.000308197021484375;1 mA
-0.1617431640625;48.8029408767844;-0.00031414794921875;-0.16162109375;312;0.000305206298828125;1 mA
-0.1641845703125;48.9250108764762;-0.000313262939453125;-0.164031982421875;313;0.000306304931640625;1 mA
-0.1666259765625;49.047080876168;-0.00031573486328125;-0.166473388671875;314;0.00030792236328125;1 mA
-0.1690673828125;49.1691508758598;-0.000318603515625;-0.1689453125;315;0.0003095703125;1 mA
-0.1715087890625;49.2912208755516;-0.00031982421875;-0.17132568359375;316;0.000311431884765625;1 mA
-0.1739501953125;49.4132908752434;-0.000318878173828125;-0.173828125;317;0.00030999755859375;1 mA
-0.1763916015625;49.5353608749352;-0.000318145751953125;-0.176239013671875;318;0.0003089599609375;1 mA
-0.1788330078125;49.657430874627;-0.0003187255859375;-0.1787109375;319;0.0003101806640625;1 mA
-0.1812744140625;49.7795008743188;-0.000320709228515625;-0.18115234375;320;0.0003118896484375;1 mA
-0.1837158203125;49.9015708740106;-0.000324920654296875;-0.18359375;321;0.0003148193359375;1 mA
-0.1861572265625;50.0236408737024;-0.000323394775390625;-0.186065673828125;322;0.000314605712890625;1 mA
-0.1885986328125;50.1457108733943;-0.00032305908203125;-0.188446044921875;323;0.00031268310546875;1 mA
-0.1910400390625;50.2677808730861;-0.000323333740234375;-0.19085693359375;324;0.000312774658203125;1 mA
-0.1934814453125;50.3898508727779;-0.00032415771484375;-0.193359375;325;0.000311920166015625;1 mA
-0.1959228515625;50.5119208724697;-0.00032666015625;-0.195770263671875;326;0.000316558837890625;1 mA
-0.1983642578125;50.6339908721615;-0.000325897216796875;-0.198150634765625;327;0.000317718505859375;1 mA
-0.2008056640625;50.7560608718533;-0.000326416015625;-0.20062255859375;328;0.000316925048828125;1 mA
